netstrain	pxy1	varcorCSYM	Pxy[Mpa]
0.0050	0.0177	96.0774	17.7180
0.0100	0.0212	96.0782	21.1993
0.0150	0.0248	95.9929	24.8045
0.0200	0.0282	96.0339	28.1953
0.0250	0.0318	95.9560	31.7818
0.0300	0.0352	95.9647	35.1681
0.0350	0.0388	95.9916	38.8105
0.0400	0.0421	96.0364	42.1203
0.0450	0.0457	96.0403	45.7374
0.0500	0.0492	96.0148	49.1569
0.0550	0.0527	95.9437	52.7391
0.0600	0.0560	95.9089	56.0073
0.0650	0.0597	95.9547	59.7052
0.0700	0.0630	95.9879	63.0423
0.0750	0.0668	96.0060	66.7703
0.0800	0.0700	95.9271	70.0079
0.0850	0.0737	95.9828	73.6561
0.0900	0.0770	95.8831	76.9611
0.0950	0.0807	95.9296	80.6549
0.1000	0.0839	95.9063	83.8673
0.1050	0.0876	95.8803	87.6208
0.1100	0.0909	95.8885	90.8811
0.1150	0.0946	95.8389	94.6235
0.1200	0.0979	95.8246	97.8944
0.1250	0.1015	95.9345	101.5449
0.1300	0.1044	95.8101	104.4325
0.1350	0.1082	95.8590	108.2425
0.1400	0.1114	95.8155	111.3864
0.1450	0.1152	95.8472	115.1747
0.1500	0.1184	95.8180	118.4075
0.1550	0.1222	95.8418	122.1932
0.1600	0.1255	95.7599	125.4585
0.1650	0.1292	95.7934	129.1889
0.1700	0.1325	95.8391	132.4507
0.1750	0.1362	95.7857	136.2032
0.1800	0.1394	95.7573	139.4263
0.1850	0.1432	95.7293	143.2335
0.1900	0.1464	95.7210	146.3981
0.1950	0.1502	95.7583	150.2491
0.2000	0.1534	95.7361	153.4126
0.2050	0.1572	95.8002	157.2331
0.2100	0.1604	95.8021	160.3853
0.2150	0.1643	95.6626	164.2814
0.2200	0.1674	95.7884	167.3514
0.2250	0.1713	95.7119	171.2913
0.2300	0.1744	95.7747	174.3634
0.2350	0.1783	95.7670	178.2678
0.2400	0.1813	95.6941	181.3361
0.2450	0.1853	95.7820	185.3387
0.2500	0.1883	95.7433	188.3318
0.2550	0.1923	95.6850	192.3320
0.2600	0.1953	95.6978	195.3185
0.2650	0.1993	95.6626	199.2536
0.2700	0.2023	95.7668	202.3261
0.2750	0.2063	95.6275	206.3266
0.2800	0.2093	95.6592	209.3426
0.2850	0.2129	95.5289	212.9060
0.2900	0.2159	95.6317	215.8732
0.2950	0.2200	95.5534	219.9927
0.3000	0.2229	95.6635	222.9052
0.3050	0.2270	95.6290	226.9821
0.3100	0.2299	95.6233	229.9263
0.3150	0.2339	95.6532	233.9091
0.3200	0.2369	95.6493	236.9347
0.3250	0.2409	95.6482	240.9404
0.3300	0.2439	95.6727	243.9014
0.3350	0.2480	95.6298	247.9503
0.3400	0.2509	95.6151	250.8851
0.3450	0.2550	95.6013	254.9696
0.3500	0.2578	95.6331	257.8082
0.3550	0.2620	95.6389	261.9972
0.3600	0.2648	95.5689	264.8274
0.3650	0.2690	95.5292	269.0318
0.3700	0.2718	95.5825	271.8202
0.3750	0.2760	95.5167	276.0157
0.3800	0.2788	95.5865	278.8474
0.3850	0.2830	95.4829	282.9756
0.3900	0.2859	95.4856	285.8635
0.3950	0.2900	95.5174	290.0027
0.4000	0.2928	95.5314	292.7941
0.4050	0.2970	95.4589	296.9937
0.4100	0.2998	95.5163	299.7683
0.4150	0.3040	95.5208	303.9819
0.4200	0.3068	95.4690	306.7567
0.4250	0.3110	95.4502	310.9730
0.4300	0.3138	95.4819	313.8099
0.4350	0.3180	95.4584	317.9551
0.4400	0.3208	95.4353	320.8312
0.4450	0.3249	95.4168	324.9486
0.4500	0.3278	95.3697	327.7982
0.4550	0.3320	95.4702	331.9661
0.4600	0.3348	95.4756	334.7622
0.4650	0.3390	95.4586	339.0168
0.4700	0.3418	95.4090	341.7860
0.4750	0.3460	95.4938	345.9809
0.4800	0.3488	95.4493	348.7618
0.4850	0.3530	95.4121	352.9978
0.4900	0.3557	95.4726	355.7475
0.4950	0.3600	95.4673	359.9865
0.5000	0.3628	95.4759	362.8148
0.5050	0.3669	95.4003	366.9491
0.5100	0.3699	95.3287	369.8597
0.5150	0.3740	95.3666	373.9986
0.5200	0.3768	95.4262	376.8147
0.5250	0.3810	95.3712	380.9971
0.5300	0.3838	95.4515	383.8491
0.5350	0.3880	95.3211	387.9914
0.5400	0.3909	95.4037	390.8953
0.5450	0.3950	95.4012	395.0267
0.5500	0.3976	95.3250	397.5813
0.5550	0.4019	95.3220	401.8582
0.5600	0.4046	95.3709	404.5916
0.5650	0.4089	95.3380	408.8925
0.5700	0.4116	95.3302	411.6008
0.5750	0.4158	95.2981	415.8443
0.5800	0.4186	95.3169	418.6180
0.5850	0.4228	95.3115	422.8358
0.5900	0.4257	95.2651	425.6970
0.5950	0.4299	95.2495	429.8508
0.6000	0.4327	95.1920	432.6535
0.6050	0.4368	95.2194	436.8030
0.6100	0.4396	95.2573	439.6200
0.6150	0.4436	95.2483	443.6482
0.6200	0.4463	95.2726	446.3168
0.6250	0.4507	95.1690	450.6653
0.6300	0.4533	95.1610	453.2567
0.6350	0.4573	95.2082	457.3165
0.6400	0.4603	95.1826	460.2544
0.6450	0.4643	95.1916	464.2663
0.6500	0.4672	95.1152	467.2157
0.6550	0.4712	95.1010	471.2148
0.6600	0.4742	95.1505	474.2260
0.6650	0.4782	95.1589	478.2242
0.6700	0.4812	95.1695	481.2065
0.6750	0.4852	95.1487	485.1957
0.6800	0.4882	95.1771	488.2256
0.6850	0.4922	95.1836	492.1810
0.6900	0.4952	95.1423	495.2004
0.6950	0.4993	95.1221	499.2593
0.7000	0.5022	95.1136	502.1983
0.7050	0.5063	95.0297	506.2600
0.7100	0.5092	95.0917	509.2237
0.7150	0.5132	95.0466	513.2443
0.7200	0.5162	95.1038	516.2001
0.7250	0.5202	95.0877	520.2375
0.7300	0.5232	95.0651	523.1899
0.7350	0.5272	95.1334	527.2390
0.7400	0.5301	95.0470	530.1406
0.7450	0.5342	95.0369	534.2396
0.7500	0.5372	95.0550	537.1948
0.7550	0.5412	95.0692	541.2497
0.7600	0.5442	95.0259	544.1531
0.7650	0.5482	95.0447	548.2211
0.7700	0.5510	95.0126	551.0205
0.7750	0.5542	95.0030	554.2314
0.7800	0.5571	94.9505	557.1272
0.7850	0.5612	95.0137	561.2420
0.7900	0.5641	94.9545	564.0981
0.7950	0.5682	95.0244	568.2157
0.8000	0.5711	94.9788	571.0762
0.8050	0.5752	94.9331	575.2415
0.8100	0.5780	94.8440	578.0378
0.8150	0.5822	94.8330	582.1999
0.8200	0.5850	94.8717	585.0272
0.8250	0.5892	94.7357	589.1916
0.8300	0.5920	94.8424	592.0479
0.8350	0.5962	94.8187	596.1681
0.8400	0.5991	94.7194	599.0529
0.8450	0.6032	94.8808	603.1771
0.8500	0.6060	94.7218	606.0305
0.8550	0.6102	94.7202	610.1517
0.8600	0.6130	94.6241	613.0045
0.8650	0.6172	94.6646	617.1827
0.8700	0.6200	94.6149	619.9546
0.8750	0.6242	94.6304	624.1983
0.8800	0.6269	94.5830	626.9479
0.8850	0.6311	94.6984	631.1349
0.8900	0.6340	94.6543	634.0304
0.8950	0.6381	94.5207	638.1209
0.9000	0.6409	94.5840	640.8991
0.9050	0.6451	94.6005	645.0667
0.9100	0.6477	94.5638	647.7306
0.9150	0.6520	94.5542	652.0391
0.9200	0.6548	94.5672	654.7501
0.9250	0.6590	94.4935	659.0320
0.9300	0.6618	94.5696	661.7817
0.9350	0.6661	94.6079	666.0535
0.9400	0.6686	94.5280	668.6500
0.9450	0.6728	94.4638	672.7859
0.9500	0.6756	94.5221	675.6252
0.9550	0.6798	94.5018	679.8094
0.9600	0.6827	94.5096	682.6565
0.9650	0.6867	94.4594	686.7490
0.9700	0.6896	94.5149	689.6257
0.9750	0.6937	94.5223	693.7310
0.9800	0.6966	94.5010	696.6378
0.9850	0.7007	94.5941	700.7488
0.9900	0.7035	94.5619	703.5461
0.9950	0.7071	94.4722	707.1311
1.0000	0.7101	94.4382	710.0783
1.0050	0.7141	94.4061	714.1295
1.0100	0.7171	94.4040	717.0705
1.0150	0.7211	94.4237	721.1191
1.0200	0.7241	94.4431	724.0537
1.0250	0.7281	94.4765	728.1194
1.0300	0.7311	94.4011	731.0591
1.0350	0.7352	94.4005	735.1548
1.0400	0.7380	94.4052	738.0462
1.0450	0.7421	94.3493	742.1373
1.0500	0.7450	94.3810	745.0334
1.0550	0.7492	94.4046	749.1584
1.0600	0.7520	94.3404	752.0323
1.0650	0.7562	94.2504	756.1610
1.0700	0.7590	94.3097	759.0346
1.0750	0.7631	94.2702	763.1414
1.0800	0.7661	94.3269	766.0646
1.0850	0.7702	94.3517	770.1658
1.0900	0.7731	94.3205	773.0655
1.0950	0.7771	94.3398	777.1131
1.1000	0.7800	94.2502	780.0275
1.1050	0.7841	94.2752	784.1389
1.1100	0.7870	94.2961	786.9739
1.1150	0.7912	94.2832	791.2016
1.1200	0.7940	94.2725	794.0040
1.1250	0.7981	94.2931	798.1029
1.1300	0.8009	94.1997	800.8735
1.1350	0.8051	94.1919	805.1267
1.1400	0.8079	94.2380	807.8549
1.1450	0.8121	94.2381	812.1449
1.1500	0.7687	94.1754	768.6844
1.1550	0.7729	94.0608	772.9041
1.1600	0.7757	94.0570	775.7359
1.1650	0.7799	94.0789	779.8797
1.1700	0.7828	94.0825	782.7578
1.1750	0.7869	93.9735	786.9076
1.1800	0.7897	94.0903	789.7375
1.1850	0.7939	94.0999	793.9460
1.1900	0.7967	93.9934	796.7477
1.1950	0.8010	94.0004	800.9811
1.2000	0.8038	94.0374	803.7860
1.2050	0.8080	94.0561	807.9683
1.2100	0.8107	94.0373	810.7497
1.2150	0.8150	93.9933	814.9658
1.2200	0.8178	94.0588	817.7904
1.2250	0.8220	94.0375	821.9973
1.2300	0.8248	94.0139	824.7908
1.2350	0.8290	94.0129	829.0036
1.2400	0.8318	93.9990	831.7814
1.2450	0.8360	93.8814	835.9583
1.2500	0.8388	93.9440	838.7733
1.2550	0.8429	93.9366	842.9418
1.2600	0.8458	93.9266	845.8080
1.2650	0.8500	93.8946	849.9843
1.2700	0.8527	93.9620	852.6662
1.2750	0.8571	93.8415	857.0630
1.2800	0.8597	93.9284	859.6674
1.2850	0.8640	93.8800	864.0008
1.2900	0.8667	93.9910	866.6875
1.2950	0.8710	93.8280	871.0473
1.3000	0.8737	93.8899	873.6850
1.3050	0.8781	93.8193	878.0528
1.3100	0.8806	93.8983	880.6304
1.3150	0.8812	93.8054	881.1606
1.3200	0.8836	93.9089	883.5743
1.3250	0.8879	93.8294	887.8879
1.3300	0.8906	93.8498	890.6243
1.3350	0.8948	93.8538	894.8418
1.3400	0.8976	93.8509	897.6382
1.3450	0.9018	93.7896	901.8341
1.3500	0.9046	93.7986	904.6232
1.3550	0.9088	93.7871	908.8448
1.3600	0.9116	93.7781	911.6492
1.3650	0.9147	93.7616	914.7067
1.3700	0.9176	93.7449	917.5510
1.3750	0.9217	93.6219	921.7014
1.3800	0.9145	93.6624	914.5455
1.3850	0.9188	93.6835	918.8342
1.3900	0.9214	93.6584	921.4480
1.3950	0.9258	93.6129	925.7848
1.4000	0.9285	93.6278	928.4750
1.4050	0.9328	93.5671	932.7690
1.4100	0.9355	93.6299	935.4875
1.4150	0.9398	93.6059	939.7682
1.4200	0.9424	93.5439	942.3754
1.4250	0.9468	93.5261	946.7628
1.4300	0.9492	93.4629	949.1850
1.4350	0.9535	93.5215	953.5089
1.4400	0.9562	93.4701	956.2440
1.4450	0.9605	93.4778	960.4890
1.4500	0.9632	93.4791	963.1917
1.4550	0.9675	93.4371	967.4595
1.4600	0.9702	93.4708	970.2166
1.4650	0.9745	93.4352	974.4715
1.4700	0.9772	93.5159	977.2134
1.4750	0.9815	93.4219	981.4732
1.4800	0.9843	93.4123	984.2610
1.4850	0.9884	93.3850	988.4240
1.4900	0.9912	93.3710	991.2152
1.4950	0.9954	93.3401	995.4430
1.5000	0.9982	93.3857	998.2039
1.5050	1.0024	93.3376	1002.3854
1.5100	1.0052	93.4299	1005.1964
1.5150	1.0094	93.3209	1009.4372
1.5200	1.0122	93.3056	1012.1946
1.5250	1.0164	93.3092	1016.4497
1.5300	1.0192	93.3228	1019.2075
1.5350	1.0234	93.2868	1023.4075
1.5400	1.0262	93.3378	1026.2033
1.5450	1.0304	93.2579	1030.4090
1.5500	1.0331	93.3373	1033.1387
1.5550	1.0118	93.0851	1011.8157
1.5600	1.0157	93.0882	1015.6621
1.5650	1.0187	93.0146	1018.7215
1.5700	1.0226	93.0673	1022.5887
1.5750	1.0257	93.0317	1025.6808
1.5800	1.0296	93.0368	1029.6437
1.5850	1.0327	93.0409	1032.6801
1.5900	1.0366	93.0013	1036.5893
1.5950	1.0397	93.0056	1039.6732
1.6000	1.0436	93.0395	1043.6372
1.6050	1.0467	92.9805	1046.6503
1.6100	1.0506	93.0004	1050.6371
1.6150	1.0536	92.9524	1053.5734
1.6200	1.0576	92.9991	1057.6222
1.6250	1.0606	92.9012	1060.6145
1.6300	1.0647	92.9881	1064.6698
1.6350	1.0676	92.9011	1067.5924
1.6400	1.0717	92.9230	1071.6946
1.6450	1.0746	92.9383	1074.5821
1.6500	1.0787	92.8893	1078.6876
1.6550	1.0815	92.8874	1081.5470
1.6600	1.0857	92.9709	1085.6680
1.6650	1.0885	92.9261	1088.5466
1.6700	1.0927	92.8129	1092.6672
1.6750	1.0955	92.8575	1095.5125
1.6800	1.0997	92.8483	1099.6716
1.6850	1.0845	92.7068	1084.4771
1.6900	1.0888	92.5590	1088.8418
1.6950	1.0915	92.5498	1091.5343
1.7000	1.0958	92.6329	1095.7653
1.7050	1.0985	92.5682	1098.5382
1.7100	1.1028	92.5622	1102.8055
1.7150	1.1055	92.6178	1105.5299
1.7200	1.1098	92.6033	1109.7755
1.7250	1.1125	92.4875	1112.5135
1.7300	1.1168	92.5977	1116.7542
1.7350	1.1188	92.5612	1118.7603
1.7400	1.1224	92.5876	1122.3969
1.7450	1.1252	92.5012	1125.2132
1.7500	1.1294	92.5335	1129.3759
1.7550	1.0914	92.5115	1091.3651
1.7600	1.0957	92.3979	1095.6771
1.7650	1.0984	92.4420	1098.4465
1.7700	1.1026	92.4777	1102.6440
1.7750	1.1054	92.4464	1105.4365
1.7800	1.1095	92.3734	1109.4961
1.7850	1.1123	92.4227	1112.2790
1.7900	1.1165	92.3846	1116.4601
1.7950	1.1193	92.4319	1119.2623
1.8000	1.1235	92.3393	1123.4517
1.8050	1.1263	92.4508	1126.2560
1.8100	1.1304	92.3915	1130.4357
1.8150	1.1332	92.3658	1133.2403
1.8200	1.1374	92.3373	1137.4211
1.8250	1.1403	92.3541	1140.2536
1.8300	1.1445	92.3865	1144.4528
1.8350	1.1472	92.4328	1147.1757
1.8400	1.1514	92.2472	1151.4419
1.8450	1.1541	92.3533	1154.1305
1.8500	1.1584	92.3352	1158.4388
1.8550	1.1611	92.2923	1161.1227
1.8600	1.1654	92.3497	1165.4039
1.8650	1.1681	92.3091	1168.1290
1.8700	1.1719	92.3249	1171.9284
1.8750	1.1745	92.3348	1174.5255
1.8800	1.1790	92.2762	1178.9625
1.8850	1.1815	92.2912	1181.5397
1.8900	1.1859	92.3168	1185.9127
1.8950	1.1885	92.2815	1188.4639
1.9000	1.1929	92.2847	1192.9248
1.9050	1.1955	92.3273	1195.4664
1.9100	1.1999	92.2658	1199.9067
1.9150	1.2025	92.1727	1202.4834
1.9200	1.2066	92.2273	1206.6043
1.9250	1.2092	92.3146	1209.1847
1.9300	1.2136	92.2803	1213.5657
1.9350	1.2161	92.1619	1216.1434
1.9400	1.2201	92.2169	1220.1184
1.9450	1.2228	92.1689	1222.8476
1.9500	1.2271	92.2042	1227.1126
1.9550	1.2298	92.0911	1229.8141
1.9600	1.2341	92.1010	1234.0899
1.9650	1.2368	92.0607	1236.7871
1.9700	1.2411	92.1454	1241.0942
1.9750	1.2438	92.1442	1243.8332
1.9800	1.2480	92.1924	1248.0040
1.9850	1.2509	92.1314	1250.8502
1.9900	1.2550	92.0397	1254.9945
1.9950	1.2577	92.0487	1257.7287
2.0000	1.2620	91.9655	1262.0070
2.0050	1.2648	91.9895	1264.7671
2.0100	1.2690	91.9833	1268.9611
2.0150	1.2717	91.9526	1271.7334
2.0200	1.2760	92.0303	1275.9522
2.0250	1.2714	91.8804	1271.4217
2.0300	1.2754	91.8560	1275.4329
2.0350	1.2784	91.8769	1278.3503
2.0400	1.2824	91.8667	1282.3938
2.0450	1.2854	91.7981	1285.3662
2.0500	1.2893	91.9199	1289.3260
2.0550	1.2923	91.9466	1292.2542
2.0600	1.2963	91.9390	1296.3163
2.0650	1.2992	91.9259	1299.1884
2.0700	1.3034	91.9120	1303.3534
2.0750	1.3061	91.9310	1306.1353
2.0800	1.3103	91.8765	1310.2700
2.0850	1.3131	91.8967	1313.1295
2.0900	1.3173	91.9677	1317.3002
2.0950	1.3201	91.9657	1320.0599
2.1000	1.3243	91.9706	1324.3162
2.1050	1.3270	91.8689	1327.0496
2.1100	1.3313	91.9152	1331.2824
2.1150	1.3340	91.9342	1333.9931
2.1200	1.3383	91.9283	1338.2568
2.1250	1.3407	91.8872	1340.6698
2.1300	1.3449	91.9107	1344.8739
2.1350	1.3474	91.9625	1347.3811
2.1400	1.3408	91.9411	1340.8277
2.1450	1.2247	92.0220	1224.6899
2.1500	1.2288	91.9531	1228.7999
2.1550	1.2317	92.0021	1231.6912
2.1600	1.2358	92.0293	1235.8449
2.1650	1.2387	91.9995	1238.6564
2.1700	1.2428	91.9175	1242.7964
2.1750	1.2456	91.9713	1245.6217
2.1800	1.2498	91.9756	1249.7910
2.1850	1.2526	91.9208	1252.6061
2.1900	1.2568	91.8890	1256.7773
2.1950	1.2596	91.9216	1259.5770
2.2000	1.2638	91.9083	1263.8265
2.2050	1.2665	91.8902	1266.4836
2.2100	1.2708	91.8813	1270.7922
2.2150	1.2735	91.8555	1273.4750
2.2200	1.2778	91.8679	1277.8256
2.2250	1.2805	91.8140	1280.4865
2.2300	1.2848	91.8227	1284.7723
2.2350	1.2874	91.8403	1287.4231
2.2400	1.2917	91.7490	1291.7260
2.2450	1.2944	91.8206	1294.3531
2.2500	1.2987	91.8111	1298.7281
2.2550	1.3013	91.7615	1301.3495
2.2600	1.3057	91.7583	1305.7233
2.2650	1.3083	91.7316	1308.3055
2.2700	1.3127	91.7750	1312.6764
2.2750	1.3153	91.7623	1315.3258
2.2800	1.3197	91.7544	1319.6560
2.2850	1.3223	91.7516	1322.3185
2.2900	1.3266	91.6208	1326.5741
2.2950	1.3293	91.7356	1329.3004
2.3000	1.3336	91.6880	1333.5612
2.3050	1.3363	91.6365	1336.2759
2.3100	1.3405	91.6304	1340.5321
2.3150	1.3432	91.6400	1343.2496
2.3200	1.3475	91.6426	1347.5130
2.3250	1.3502	91.7127	1350.2352
2.3300	1.3545	91.6561	1354.4623
2.3000	1.3336	91.6880	1333.5612
2.3350	1.3572	91.6672	1357.1877
2.3400	1.3614	91.6762	1361.4339
2.3450	1.3642	91.5655	1364.1573
2.3500	1.3684	91.6584	1368.4021
2.3550	1.3711	91.5767	1371.1345
2.3600	1.3754	91.5489	1375.4317
2.3650	1.3781	91.6204	1378.1026
2.3700	1.3824	91.6161	1382.3853
2.3750	1.3851	91.5876	1385.0755
2.3800	1.3893	91.5293	1389.3373
2.3850	1.3920	91.6097	1392.0148
2.3900	1.3963	91.5239	1396.3162
2.3950	1.3990	91.5438	1399.0120
2.4000	1.4033	91.5408	1403.3027
2.4050	1.4060	91.6044	1406.0054
2.4100	1.4103	91.4883	1410.3078
2.4150	1.4130	91.6079	1412.9790
2.4200	1.4173	91.4897	1417.2782
2.4250	1.4200	91.5262	1419.9655
2.4300	1.4242	91.4798	1424.2306
2.4350	1.4270	91.5594	1426.9634
2.4400	1.4311	91.4970	1431.1441
2.4450	1.4340	91.5000	1433.9519
2.4500	1.4381	91.4707	1438.1462
2.4550	1.4385	91.5690	1438.4727
2.4600	1.4424	91.5333	1442.4335
2.4650	1.4454	91.5657	1445.3746
2.4700	1.4494	91.5284	1449.3906
2.4750	1.4523	91.5884	1452.3407
2.4800	1.4564	91.5300	1456.4215
2.4850	1.4593	91.5257	1459.2878
2.4900	1.4634	91.4861	1463.3866
2.4950	1.4663	91.5528	1466.2615
2.5000	1.4703	91.5090	1470.3453
2.5050	1.4732	91.4606	1473.2198
2.5100	1.4773	91.4990	1477.3198
2.5150	1.4802	91.5316	1480.2096
2.5200	1.4843	91.4693	1484.2745
2.5250	1.4872	91.4633	1487.1669
2.5300	1.4912	91.4832	1491.2170
2.5350	1.4941	91.5024	1494.0862
2.5400	1.4983	91.4564	1498.2510
2.5450	1.5010	91.4402	1501.0136
2.5500	1.5052	91.4448	1505.1913
2.5550	1.5080	91.4969	1508.0023
2.5600	1.5122	91.4766	1512.2001
2.5650	1.5149	91.4605	1514.9413
2.5700	1.5191	91.4460	1519.1352
2.5750	1.5219	91.4260	1521.9081
2.5800	1.5261	91.4234	1526.0982
2.5850	1.5289	91.4508	1528.8795
2.5900	1.5330	91.4147	1533.0018
2.5950	1.5358	91.4574	1535.8018
2.6000	1.5400	91.4025	1539.9830
2.6050	1.5428	91.3563	1542.7822
2.6100	1.5469	91.3355	1546.9354
2.6150	1.5497	91.3201	1549.6872
2.6200	1.5539	91.3689	1553.8959
2.6250	1.5566	91.3782	1556.5883
2.6300	1.5607	91.3605	1560.6502
2.6350	1.5635	91.2686	1563.5243
2.6400	1.5676	91.3313	1567.6461
2.6450	1.5705	91.3806	1570.4712
2.6500	1.5746	91.3380	1574.5744
2.6550	1.5772	91.3657	1577.2309
2.6600	1.5815	91.3315	1581.5049
2.6650	1.5841	91.3558	1584.1035
2.6700	1.5878	91.3552	1587.8272
2.6750	1.5907	91.4084	1590.7486
2.6800	1.5948	91.3016	1594.8306
2.6850	1.5977	91.3080	1597.7029
2.6900	1.6018	91.3216	1601.7713
2.6950	1.6046	91.2854	1604.5738
2.7000	1.6088	91.2557	1608.7853
2.7050	1.6116	91.2945	1611.5647
2.7100	1.6157	91.2637	1615.7217
2.7150	1.6185	91.2349	1618.4870
2.7200	1.6227	91.3238	1622.6830
2.7250	1.6254	91.2025	1625.3732
2.7300	1.6296	91.2012	1629.6473
2.7350	1.6323	91.2189	1632.3267
2.7400	1.6366	91.2749	1636.6158
2.7450	1.6393	91.2614	1639.2827
2.7500	1.6435	91.2581	1643.5345
2.7550	1.6462	91.2483	1646.2279
2.7600	1.6505	91.2196	1650.4884
2.7650	1.6531	91.2665	1653.1298
2.7700	1.6575	91.1492	1657.4520
2.7750	1.6601	91.2286	1660.1060
2.7800	1.6644	91.1351	1664.3584
2.7850	1.6670	91.2959	1667.0461
2.7900	1.6713	91.1877	1671.3146
2.7950	1.6740	91.2324	1673.9701
2.8000	1.6782	91.1544	1678.2219
2.8050	1.6810	91.2496	1680.9673
2.8100	1.6852	91.1568	1685.1758
2.8150	1.6871	91.1910	1687.1332
2.8200	1.6909	91.2166	1690.9201
2.8250	1.6936	91.2394	1693.6314
2.8300	1.6978	91.2070	1697.8386
2.8350	1.7006	91.1252	1700.5900
2.8400	1.7048	91.1023	1704.7838
2.8450	1.7076	91.1931	1707.5733
2.8500	1.7117	91.2612	1711.7444
2.8550	1.7145	91.2021	1714.4656
2.8600	1.7187	91.2030	1718.6787
2.8650	1.7214	91.1474	1721.4428
2.8700	1.7256	91.1728	1725.6274
2.8750	1.7284	91.1256	1728.3864
2.8800	1.7326	91.0395	1732.5967
2.8850	1.7353	91.0622	1735.2890
2.8900	1.7395	90.9904	1739.4826
2.8950	1.7422	91.0484	1742.2348
2.9000	1.7465	91.0756	1746.4508
2.9050	1.7491	91.1963	1749.0828
2.9100	1.7533	91.1156	1753.2747
2.9150	1.7560	91.1432	1756.0469
2.9200	1.7602	91.1268	1760.1690
2.9250	1.7630	91.1180	1762.9746
2.9300	1.7671	91.1284	1767.1433
2.9350	1.7699	91.1135	1769.9473
2.9400	1.7724	91.2445	1772.3800
2.9450	1.7752	91.2546	1775.1632
2.9500	1.7793	91.1846	1779.2610
2.9550	1.7821	91.2221	1782.0994
2.9600	1.7862	91.1738	1786.2139
2.9650	1.7891	91.2626	1789.0554
2.9700	1.7931	91.1746	1793.1290
2.9750	1.7960	91.2230	1795.9804
2.9800	1.5554	90.9083	1555.4430
2.9850	0.5157	88.5859	515.6693
2.9900	0.5158	88.6286	515.8105
2.9950	0.5189	88.7024	518.8635
3.0000	0.5227	88.6673	522.7444
3.0050	0.5258	88.7374	525.8275
3.0100	0.5297	88.6908	529.7391
3.0150	0.5328	88.6658	532.8097
3.0200	0.5367	88.6611	536.7309
3.0250	0.5398	88.7038	539.8165
3.0300	0.5438	88.6488	543.7563
3.0350	0.5467	88.5562	546.7495
3.0400	0.5508	88.6068	550.7618
3.0450	0.5537	88.5652	553.7087
3.0500	0.5578	88.5561	557.7922
3.0550	0.5607	88.5800	560.7031
3.0600	0.5648	88.5998	564.7992
3.0650	0.5677	88.6056	567.6817
3.0700	0.5718	88.5491	571.7753
3.0750	0.5747	88.5711	574.6682
3.0800	0.5788	88.5518	578.7680
3.0850	0.5817	88.5167	581.7213
3.0900	0.5857	88.5294	585.7338
3.0950	0.5887	88.4921	588.6848
3.1000	0.5927	88.4534	592.7410
3.1050	0.5957	88.5249	595.6786
3.1100	0.5998	88.4757	599.7571
3.1150	0.6026	88.5022	602.6360
3.1200	0.6068	88.4391	606.8044
3.1250	0.6096	88.3894	609.6051
3.1300	0.6138	88.4817	613.7534
3.1350	0.6166	88.4742	616.6028
3.1400	0.6208	88.3891	620.7677
3.1450	0.6236	88.4255	623.5880
3.1500	0.6278	88.4452	627.7603
3.1550	0.6306	88.3981	630.5569
3.1600	0.6348	88.4552	634.7942
3.1650	0.6375	88.3695	637.5041
3.1700	0.6418	88.4005	641.7862
3.1750	0.6445	88.3504	644.4707
3.1800	0.6488	88.3826	648.7920
3.1850	0.6514	88.4077	651.4045
3.1900	0.5945	88.8325	594.4838
3.1950	0.5971	88.7482	597.1287
3.2000	0.6014	88.7323	601.3722
3.2050	0.6041	88.7192	604.0968
3.2100	0.6084	88.7792	608.3503
3.2150	0.6111	88.6563	611.1253
3.2200	0.6154	88.7123	615.3593
3.2250	0.6181	88.6611	618.1136
3.2300	0.6218	88.7429	621.8358
3.2350	0.6246	88.6541	624.6289
3.2400	0.6288	88.6347	628.7547
3.2450	0.6316	88.5961	631.6435
3.2500	0.6358	88.6545	635.8042
3.2550	0.6386	88.5840	638.6060
3.2600	0.6427	88.6380	642.7439
3.2650	0.6456	88.6697	645.6210
3.2700	0.6497	88.5979	649.7351
3.2750	0.6526	88.5313	652.6153
3.2800	0.6568	88.6186	656.8102
3.2850	0.6596	88.6401	659.5838
3.2900	0.6638	88.6128	663.8279
3.2950	0.6666	88.5752	666.5937
3.3000	0.6708	88.5461	670.7926
3.3050	0.6736	88.5504	673.5546
3.3100	0.6778	88.5978	677.7620
3.3150	0.6805	88.5223	680.5414
3.3200	0.6848	88.5711	684.7854
3.3250	0.6876	88.4939	687.5614
3.3300	0.6918	88.5534	691.7759
3.3350	0.6945	88.5283	694.5217
3.3400	0.6988	88.4715	698.7898
3.3450	0.7015	88.5802	701.5248
3.3500	0.7048	88.4265	704.8434
3.3550	0.7076	88.4616	707.6388
3.3600	0.7118	88.5390	711.8367
3.3650	0.7146	88.4569	714.5645
3.3700	0.7188	88.4830	718.8179
3.3750	0.7216	88.4733	721.6024
3.3800	0.7258	88.5062	725.7896
3.3850	0.7286	88.4365	728.5725
3.3900	0.7328	88.4982	732.7934
3.3950	0.7355	88.3988	735.5299
3.4000	0.7398	88.4584	739.7973
3.4050	0.7425	88.4465	742.5076
3.4100	0.7468	88.4246	746.7825
3.4150	0.7484	88.3477	748.4140
3.4200	0.4973	87.1464	497.2945
3.4250	0.4083	87.8611	408.3178
3.4300	0.4121	87.8208	412.1477
3.4350	0.4153	87.8021	415.3182
3.4400	0.4191	87.7039	419.1479
3.4450	0.4223	87.7317	422.3125
3.4500	0.4261	87.7033	426.1466
3.4550	0.4293	87.7638	429.2761
3.4600	0.4332	87.6823	433.1546
3.4650	0.4363	87.6918	436.2587
3.4700	0.4402	87.7108	440.1657
3.4750	0.4432	87.7440	443.2130
3.4800	0.4472	87.6935	447.1805
3.4850	0.4502	87.7803	450.1826
3.4900	0.4542	87.7133	454.1658
3.4950	0.4572	87.7676	457.1557
3.5000	0.4612	87.7140	461.2035
3.5050	0.4641	87.6724	464.0805
3.5100	0.4682	87.6717	468.2211
3.5150	0.4711	87.6455	471.0563
3.5200	0.4752	87.6716	475.1937
3.5250	0.4780	87.7380	478.0019
3.5300	0.4822	87.6526	482.1852
3.5350	0.4849	87.6027	484.8834
3.5400	0.4892	87.6262	489.2003
3.5450	0.4918	87.5647	491.8424
3.5500	0.4962	87.5677	496.1798
3.5550	0.4988	87.6024	498.7629
3.5600	0.5032	87.5965	503.2118
3.5650	0.5057	87.5589	505.7427
3.5700	0.5102	87.5489	510.1725
3.5750	0.5128	87.5261	512.8010
3.5800	0.5168	87.6186	516.7881
3.5850	0.5195	87.5240	519.4763
3.5900	0.5238	87.5341	523.7529
3.5950	0.5262	87.4216	526.2141
3.6000	0.5286	87.4906	528.5826
3.6050	0.5313	87.4987	531.3316
3.6100	0.5356	87.4870	535.5955
3.6150	0.5383	87.4500	538.3105
3.6200	0.5426	87.4565	542.5729
3.6250	0.5453	87.4717	545.3052
3.6300	0.5496	87.4130	549.5739
3.6350	0.5523	87.4552	552.2804
3.6400	0.5566	87.4501	556.5790
3.6450	0.5592	87.4088	559.2206
3.6500	0.5635	87.3732	563.5395
3.6550	0.5662	87.3702	566.2324
3.6600	0.5705	87.4450	570.4989
3.6650	0.5732	87.4323	573.1539
3.6700	0.5775	87.3710	577.4916
3.6750	0.5802	87.4572	580.1579
3.6800	0.5845	87.3800	584.4849
3.6850	0.5871	87.4315	587.1101
3.6900	0.5915	87.3451	591.5156
3.6950	0.5941	87.3678	594.0824
3.7000	0.5984	87.3982	598.3545
3.7050	0.6011	87.3153	601.1185
3.7100	0.6053	87.3026	605.3491
3.7150	0.6080	87.3590	608.0372
3.7200	0.6123	87.3091	612.3092
3.7250	0.6151	87.3547	615.0657
3.7300	0.6190	87.2330	618.9934
3.7350	0.6217	87.3619	621.6874
3.7400	0.6260	87.2395	625.9763
3.7450	0.6287	87.2943	628.6980
3.7500	0.6330	87.2460	632.9732
3.7550	0.6356	87.2853	635.6429
3.7600	0.6397	87.2577	639.7292
3.7650	0.6423	87.2696	642.3044
3.7700	0.6466	87.3059	646.6359
3.7750	0.6493	87.2203	649.2907
3.7800	0.6536	87.3028	653.5868
3.7850	0.6559	87.2607	655.9264
3.7900	0.6601	87.2706	660.1061
3.7950	0.6628	87.2230	662.7762
3.8000	0.6670	87.2004	666.9796
3.8050	0.6698	87.2346	669.7737
3.8100	0.6740	87.1929	673.9817
3.8150	0.6767	87.2368	676.7368
3.8200	0.6810	87.2103	680.9886
3.8250	0.6837	87.2032	683.7436
3.8300	0.6880	87.1892	687.9659
3.8350	0.6907	87.1707	690.7390
3.8400	0.6949	87.1881	694.8970
3.8450	0.6977	87.1607	697.7270
3.8500	0.7019	87.1697	701.9304
3.8550	0.7047	87.1213	704.6673
3.8600	0.7089	87.1415	708.9323
3.8650	0.7116	87.1461	711.6431
3.8700	0.7159	87.1447	715.9177
3.8750	0.7186	87.1663	718.6235
3.8800	0.7229	87.0884	722.8869
3.8850	0.7256	87.1287	725.6439
3.8900	0.7299	87.1309	729.8823
3.8950	0.7326	87.1736	732.5992
3.9000	0.7368	87.1188	736.8187
3.9050	0.7395	87.1382	739.5262
3.9100	0.7438	87.0916	743.7985
3.9150	0.7465	87.1027	746.5053
3.9200	0.7508	87.0552	750.7861
3.9250	0.7534	87.0569	753.4187
3.9300	0.5646	88.0831	564.6061
3.9350	0.5687	88.1453	568.7324
3.9400	0.5716	88.0376	571.6354
3.9450	0.5757	88.1636	575.7322
3.9500	0.5786	88.1093	578.6035
3.9550	0.5827	88.0503	582.7459
3.9600	0.5856	88.1320	585.6038
3.9650	0.5897	88.0289	589.7152
3.9700	0.5925	87.9961	592.5412
3.9750	0.5967	88.1071	596.7074
3.9800	0.5995	88.0264	599.5401
3.9850	0.6037	87.9663	603.6872
3.9900	0.6064	88.0090	606.4275
3.9950	0.6107	88.0440	610.6880
4.0000	0.6134	87.9481	613.4056
4.0050	0.6177	87.9310	617.6681
4.0100	0.6204	88.0390	620.3566
4.0150	0.6247	87.9392	624.6638
4.0200	0.6274	87.8745	627.3561
4.0250	0.6316	87.9010	631.6453
4.0300	0.6343	87.8989	634.3123
4.0350	0.5402	88.7856	540.1647
4.0400	0.4674	88.6759	467.4266
4.0450	0.4143	88.2174	414.3283
4.0500	0.4042	86.7561	404.2220
4.0550	0.4069	86.7748	406.8647
4.0600	0.4112	86.6959	411.1513
4.0650	0.4139	86.7991	413.8874
4.0700	0.4181	86.6451	418.1449
4.0750	0.4208	86.7729	420.8420
4.0800	0.4251	86.6979	425.1226
4.0850	0.4278	86.7921	427.7903
4.0900	0.4321	86.6991	432.0837
4.0950	0.4340	86.6365	434.0231
4.1000	0.4384	86.6714	438.4157
4.1050	0.4409	86.7144	440.8937
4.1100	0.4453	86.7102	445.3490
4.1150	0.4478	86.6865	447.8162
4.1200	0.4502	86.6130	450.1727
4.1250	0.4111	86.9165	411.1273
4.1300	0.3596	87.1688	359.6220
4.1350	0.3628	87.1166	362.8304
4.1400	0.3666	87.1923	366.5615
4.1450	0.3698	87.1764	369.8300
4.1500	0.3736	87.1772	373.5612
4.1550	0.3768	87.2172	376.7572
4.1600	0.3805	87.1373	380.5058
4.1650	0.3837	87.0825	383.6740
4.1700	0.3875	87.0542	387.4821
4.1750	0.3906	87.1118	390.5545
4.1800	0.3944	87.1601	394.3602
4.1850	0.3975	87.1624	397.5451
4.1900	0.4013	87.1271	401.2615
4.1950	0.4045	87.0971	404.4983
4.2000	0.4083	87.0841	408.2820
4.2050	0.4115	87.0976	411.5039
4.2100	0.4153	87.0963	415.3018
4.2150	0.4185	87.0628	418.4837
4.2200	0.4223	87.0981	422.2927
4.2250	0.4254	87.1011	425.4108
4.2300	0.4293	87.1365	429.3018
4.2350	0.4324	87.1227	432.4118
4.2400	0.4363	87.0589	436.3192
4.2450	0.4394	87.0785	439.3922
4.2500	0.4433	87.0426	443.3496
4.2550	0.4464	87.0316	446.3580
4.2600	0.4503	87.0349	450.3261
4.2650	0.4533	87.0119	453.3488
